epoch,time,train/box_loss,train/cls_loss,train/dfl_loss,metrics/precision(B),metrics/recall(B),metrics/mAP50(B),metrics/mAP50-95(B),val/box_loss,val/cls_loss,val/dfl_loss,lr/pg0,lr/pg1,lr/pg2
1,25.0066,2.90996,4.93506,1.243,0.02877,0.35709,0.06732,0.01667,2.39942,4.38154,1.0559,0.000204327,0.000204327,0.000204327
2,49.0053,2.50404,3.14099,1.05528,0.03515,0.76242,0.25539,0.07487,2.34739,3.33792,1.07019,0.000408575,0.000408575,0.000408575
3,72.1737,2.47363,2.1703,1.0653,0.54635,0.6335,0.62402,0.19458,2.29974,1.68928,1.08144,0.000608698,0.000608698,0.000608698
4,94.9287,2.41589,1.70443,1.08268,0.67703,0.72835,0.71959,0.2187,2.32392,1.34568,1.09683,0.000606437,0.000606437,0.000606437
5,117.5,2.35685,1.53362,1.08338,0.75604,0.76554,0.77113,0.25635,2.26413,1.15883,1.0836,0.00060025,0.00060025,0.00060025
6,141.195,2.31861,1.42275,1.05553,0.81493,0.77798,0.79776,0.25791,2.28429,1.10576,1.0902,0.000594062,0.000594062,0.000594062
7,163.568,2.29827,1.37886,1.06071,0.77038,0.80628,0.78426,0.25821,2.20482,1.13254,1.05697,0.000587875,0.000587875,0.000587875
8,184.787,2.27708,1.33136,1.05589,0.80026,0.78914,0.78904,0.26396,2.19014,1.09121,1.0519,0.000581687,0.000581687,0.000581687
9,205.425,2.26026,1.27115,1.0478,0.81885,0.81083,0.81014,0.27869,2.19518,1.08066,1.05545,0.0005755,0.0005755,0.0005755
10,227.287,2.26521,1.26971,1.04587,0.84719,0.78243,0.82011,0.27913,2.18655,1.09812,1.04879,0.000569313,0.000569313,0.000569313
11,248.784,2.25376,1.25591,1.05127,0.80965,0.82841,0.81882,0.28163,2.16019,1.07591,1.04742,0.000563125,0.000563125,0.000563125
12,269.59,2.24293,1.22207,1.04731,0.82206,0.81163,0.81402,0.27447,2.17662,1.05405,1.05723,0.000556938,0.000556938,0.000556938
13,290.543,2.23605,1.19744,1.04362,0.82468,0.78048,0.81304,0.27258,2.18116,1.05806,1.04404,0.00055075,0.00055075,0.00055075
14,316.273,2.24402,1.1837,1.0446,0.83801,0.83878,0.84437,0.2969,2.16867,1.02215,1.04783,0.000544563,0.000544563,0.000544563
15,338.853,2.1988,1.15301,1.03283,0.8452,0.82445,0.83796,0.29011,2.17378,1.0334,1.05039,0.000538375,0.000538375,0.000538375
16,362.784,2.20897,1.13018,1.03642,0.84546,0.83936,0.84418,0.2965,2.1768,0.99829,1.05058,0.000532187,0.000532187,0.000532187
17,383.728,2.22411,1.13035,1.03479,0.80539,0.82164,0.79714,0.26686,2.18192,1.04771,1.04139,0.000526,0.000526,0.000526
18,403.785,2.20567,1.12126,1.03772,0.81458,0.8185,0.80369,0.28202,2.15162,1.04438,1.04044,0.000519812,0.000519812,0.000519812
19,425.094,2.19374,1.10361,1.021,0.84449,0.8332,0.83304,0.29458,2.12133,1.00234,1.03622,0.000513625,0.000513625,0.000513625
20,447.765,2.19433,1.08821,1.02974,0.83438,0.84561,0.83049,0.28848,2.15876,1.00162,1.04194,0.000507438,0.000507438,0.000507438
21,470.177,2.17779,1.09217,1.02286,0.85298,0.8564,0.84476,0.2972,2.12604,0.99362,1.03841,0.00050125,0.00050125,0.00050125
22,492.325,2.18775,1.07977,1.03016,0.84411,0.83372,0.83251,0.29403,2.15246,1.00313,1.04083,0.000495063,0.000495063,0.000495063
23,514.786,2.17696,1.07905,1.03739,0.87834,0.85042,0.85175,0.30122,2.1194,0.97973,1.03394,0.000488875,0.000488875,0.000488875
24,536.728,2.15987,1.06803,1.03074,0.87832,0.85246,0.85101,0.29857,2.15342,0.9848,1.0406,0.000482687,0.000482687,0.000482687
25,558.369,2.18952,1.08001,1.03609,0.88558,0.87298,0.86414,0.30626,2.08968,0.99575,1.02529,0.0004765,0.0004765,0.0004765
26,579.837,2.16734,1.06014,1.02734,0.88222,0.87475,0.86231,0.30835,2.13005,0.97034,1.03834,0.000470312,0.000470312,0.000470312
27,601.769,2.19082,1.07363,1.03704,0.84734,0.84875,0.84397,0.29679,2.14682,1.00185,1.03905,0.000464125,0.000464125,0.000464125
28,623.614,2.15911,1.05804,1.03279,0.89157,0.86544,0.8749,0.32088,2.08369,0.9533,1.02685,0.000457938,0.000457938,0.000457938
29,646.062,2.16349,1.03738,1.02345,0.86509,0.8667,0.85878,0.3041,2.11078,1.00728,1.02903,0.00045175,0.00045175,0.00045175
30,667.861,2.16914,1.04255,1.02777,0.8733,0.86446,0.86926,0.3144,2.09281,0.97631,1.02366,0.000445562,0.000445562,0.000445562
31,689.877,2.16148,1.04316,1.02706,0.83562,0.83883,0.83282,0.29457,2.1225,1.00616,1.02903,0.000439375,0.000439375,0.000439375
32,713.202,2.12729,1.02462,1.02509,0.86671,0.85278,0.85002,0.30636,2.11426,0.97725,1.02833,0.000433187,0.000433187,0.000433187
33,737.143,2.1374,1.02389,1.02261,0.8896,0.87456,0.86531,0.31992,2.08215,0.94657,1.02468,0.000427,0.000427,0.000427
34,762.529,2.14778,1.02214,1.02013,0.88085,0.88068,0.86865,0.31823,2.07244,0.95791,1.02096,0.000420812,0.000420812,0.000420812
35,785.822,2.14502,1.01058,1.01719,0.8948,0.87634,0.88405,0.32605,2.08092,0.93772,1.03176,0.000414625,0.000414625,0.000414625
36,809.519,2.11949,0.99411,1.01247,0.86387,0.86859,0.87465,0.32326,2.07169,0.93253,1.02438,0.000408438,0.000408438,0.000408438
37,832.363,2.127,1.0032,1.01216,0.88343,0.87945,0.87745,0.32683,2.04403,0.93111,1.01087,0.00040225,0.00040225,0.00040225
38,859.186,2.09415,0.98362,1.00931,0.90048,0.88464,0.89125,0.3363,2.04015,0.91376,1.01649,0.000396063,0.000396063,0.000396063
39,882.832,2.08913,0.98327,1.01392,0.90515,0.87573,0.88766,0.33476,2.04268,0.91321,1.01739,0.000389875,0.000389875,0.000389875
40,905.785,2.12062,0.98736,1.01752,0.86925,0.86546,0.86367,0.31641,2.0747,0.95212,1.01761,0.000383688,0.000383688,0.000383688
41,934.189,2.10193,0.98261,1.01066,0.87411,0.84473,0.85641,0.30614,2.1392,0.95148,1.03462,0.0003775,0.0003775,0.0003775
42,958.376,2.08546,0.96964,1.01315,0.91116,0.89171,0.89167,0.33921,2.01461,0.90775,1.01136,0.000371313,0.000371313,0.000371313
43,983.19,2.08474,0.9528,1.00899,0.9016,0.89012,0.89061,0.34013,2.02334,0.91116,1.01424,0.000365125,0.000365125,0.000365125
44,1008.86,2.07279,0.94878,1.00344,0.8876,0.88031,0.88399,0.33595,2.0478,0.90164,1.01606,0.000358938,0.000358938,0.000358938
45,1034.94,2.05915,0.9492,1.0067,0.89791,0.87412,0.89768,0.35054,2.00515,0.89657,1.00376,0.00035275,0.00035275,0.00035275
46,1059.98,2.06225,0.94244,1.00499,0.91444,0.87822,0.89259,0.34405,2.03053,0.89992,1.01349,0.000346563,0.000346563,0.000346563
47,1084.5,2.05753,0.9367,1.00405,0.90193,0.87958,0.89188,0.34439,2.02641,0.89455,1.01043,0.000340375,0.000340375,0.000340375
48,1111.21,2.06276,0.93426,1.00254,0.91488,0.89019,0.89948,0.34065,2.04114,0.90266,1.01516,0.000334188,0.000334188,0.000334188
49,1135.76,2.06097,0.94558,0.99755,0.90154,0.88602,0.89237,0.35773,1.9639,0.87404,1.00216,0.000328,0.000328,0.000328
50,1160.11,2.02533,0.92277,0.99327,0.89966,0.89256,0.89446,0.35721,1.97692,0.87294,0.99983,0.000321812,0.000321812,0.000321812
51,1195.98,2.01839,0.91214,1.00313,0.92046,0.88738,0.9062,0.36494,1.9512,0.86775,0.99712,0.000315625,0.000315625,0.000315625
52,1219.4,2.02498,0.9134,0.99875,0.90087,0.88907,0.89103,0.34681,1.99856,0.87186,1.0057,0.000309437,0.000309437,0.000309437
53,1246.82,2.01833,0.90818,0.98875,0.91361,0.89209,0.90262,0.36669,1.95534,0.85489,0.99662,0.00030325,0.00030325,0.00030325
54,1276.01,2.00838,0.90958,0.99705,0.8851,0.87001,0.87832,0.3427,2.01377,0.88817,1.00831,0.000297063,0.000297063,0.000297063
55,1301.46,1.9996,0.90102,0.986,0.91056,0.88865,0.89866,0.36397,1.94863,0.85733,0.9965,0.000290875,0.000290875,0.000290875
56,1329.84,1.98726,0.89648,0.99165,0.91231,0.89388,0.91841,0.36632,1.95883,0.85952,0.99813,0.000284688,0.000284688,0.000284688
57,1358.73,1.97492,0.8794,0.98695,0.92002,0.88731,0.9085,0.36936,1.93534,0.84448,0.99605,0.0002785,0.0002785,0.0002785
58,1384.69,1.97888,0.88537,0.98299,0.91108,0.88391,0.90801,0.37281,1.92783,0.83343,0.99184,0.000272313,0.000272313,0.000272313
59,1413.1,1.95006,0.87188,0.97857,0.90921,0.88857,0.90268,0.37516,1.9098,0.8192,0.99048,0.000266125,0.000266125,0.000266125
60,1440.42,1.97277,0.87553,0.98314,0.92528,0.89374,0.90948,0.38416,1.90052,0.82172,0.98775,0.000259938,0.000259938,0.000259938
61,1466.91,1.93298,0.85717,0.97954,0.90381,0.89556,0.90441,0.37561,1.88842,0.8213,0.9842,0.00025375,0.00025375,0.00025375
62,1491.07,1.9417,0.86323,0.9753,0.91416,0.90067,0.91769,0.38449,1.88447,0.7994,0.9859,0.000247563,0.000247563,0.000247563
63,1515.57,1.93768,0.85306,0.97965,0.91448,0.90453,0.916,0.39078,1.8735,0.80427,0.98344,0.000241375,0.000241375,0.000241375
64,1538.6,1.90855,0.8398,0.97777,0.92121,0.89479,0.91467,0.39439,1.84117,0.79059,0.97833,0.000235188,0.000235188,0.000235188
65,1563.46,1.91154,0.83619,0.97485,0.91674,0.90058,0.91969,0.40267,1.83553,0.79086,0.97415,0.000229,0.000229,0.000229
66,1587.24,1.90264,0.83206,0.97884,0.92177,0.90734,0.92209,0.39657,1.83454,0.79966,0.97438,0.000222813,0.000222813,0.000222813
67,1612.55,1.89666,0.83066,0.9766,0.91645,0.90159,0.91749,0.3993,1.8409,0.78138,0.97446,0.000216625,0.000216625,0.000216625
68,1639.34,1.86935,0.81885,0.96424,0.91899,0.90378,0.92226,0.39669,1.84849,0.78873,0.97298,0.000210437,0.000210437,0.000210437
69,1663.89,1.8648,0.81158,0.96472,0.92143,0.91025,0.92553,0.41014,1.79807,0.77396,0.96697,0.00020425,0.00020425,0.00020425
70,1688.18,1.84031,0.80589,0.96572,0.92059,0.90616,0.9238,0.41394,1.78954,0.76529,0.96681,0.000198063,0.000198063,0.000198063
71,1712.1,1.85202,0.80135,0.96955,0.92198,0.90051,0.92103,0.4145,1.78516,0.76625,0.96601,0.000191875,0.000191875,0.000191875
72,1736.54,1.82385,0.79543,0.96513,0.91826,0.90657,0.91895,0.41485,1.79584,0.75865,0.96483,0.000185688,0.000185688,0.000185688
73,1761.19,1.82176,0.7869,0.95301,0.93448,0.92094,0.93383,0.42834,1.73947,0.74515,0.95623,0.0001795,0.0001795,0.0001795
74,1785.66,1.81026,0.7913,0.95461,0.92942,0.92051,0.93238,0.4308,1.72289,0.74058,0.95369,0.000173313,0.000173313,0.000173313
75,1810.44,1.77737,0.77413,0.94659,0.92728,0.92024,0.93414,0.43219,1.71858,0.73083,0.95287,0.000167125,0.000167125,0.000167125
76,1834.96,1.7841,0.78024,0.95651,0.93116,0.91878,0.93544,0.43295,1.74247,0.73183,0.95634,0.000160938,0.000160938,0.000160938
77,1862.69,1.76627,0.76502,0.95131,0.93933,0.9222,0.93687,0.43806,1.70151,0.7271,0.95183,0.00015475,0.00015475,0.00015475
78,1888.77,1.75296,0.75602,0.94602,0.93839,0.92221,0.93981,0.45224,1.66777,0.71183,0.9449,0.000148563,0.000148563,0.000148563
79,1915.56,1.72699,0.74905,0.94237,0.93174,0.92591,0.94038,0.44875,1.66661,0.71537,0.94632,0.000142375,0.000142375,0.000142375
80,1940.99,1.72547,0.74525,0.93784,0.93018,0.92904,0.93543,0.45275,1.65784,0.70295,0.94327,0.000136187,0.000136187,0.000136187
81,1965.94,1.7254,0.74751,0.94097,0.9206,0.93019,0.93807,0.46623,1.61001,0.69466,0.93599,0.00013,0.00013,0.00013
82,1991.37,1.70351,0.74046,0.93988,0.93341,0.9266,0.93504,0.45564,1.64318,0.69743,0.94,0.000123812,0.000123812,0.000123812
83,2016.82,1.69197,0.73642,0.9387,0.93496,0.92106,0.93664,0.46043,1.60735,0.69368,0.93344,0.000117625,0.000117625,0.000117625
84,2040.46,1.67039,0.73151,0.93102,0.93929,0.92239,0.94088,0.47421,1.59113,0.68185,0.93203,0.000111438,0.000111438,0.000111438
85,2063.72,1.67633,0.7312,0.93549,0.9368,0.92809,0.94265,0.47281,1.58342,0.67626,0.93153,0.00010525,0.00010525,0.00010525
86,2087.08,1.68968,0.73147,0.9325,0.93882,0.92416,0.94237,0.47028,1.59835,0.67275,0.93436,9.90625e-05,9.90625e-05,9.90625e-05
87,2109.39,1.66315,0.72053,0.93297,0.93486,0.92137,0.9427,0.47751,1.55646,0.67367,0.92665,9.2875e-05,9.2875e-05,9.2875e-05
88,2133.22,1.63128,0.7144,0.92965,0.94327,0.92895,0.94303,0.47871,1.55187,0.67675,0.9246,8.66875e-05,8.66875e-05,8.66875e-05
89,2158.4,1.62945,0.70629,0.92176,0.94382,0.92836,0.94771,0.49306,1.52578,0.6567,0.9203,8.05e-05,8.05e-05,8.05e-05
90,2181.06,1.65495,0.71994,0.93156,0.93765,0.93197,0.94806,0.48728,1.54558,0.66195,0.92171,7.43125e-05,7.43125e-05,7.43125e-05
91,2233.62,1.39817,0.63249,0.91539,0.93652,0.93344,0.94604,0.49673,1.51042,0.65297,0.91855,6.8125e-05,6.8125e-05,6.8125e-05
92,2257.62,1.36637,0.61528,0.91266,0.94196,0.93356,0.94647,0.50305,1.48981,0.64346,0.91631,6.19375e-05,6.19375e-05,6.19375e-05
93,2279.89,1.35237,0.61073,0.90775,0.94328,0.93257,0.94743,0.50954,1.46629,0.63841,0.91201,5.575e-05,5.575e-05,5.575e-05
94,2302.54,1.31699,0.60407,0.89954,0.94338,0.93369,0.94881,0.50674,1.47237,0.63539,0.91236,4.95625e-05,4.95625e-05,4.95625e-05
95,2324.78,1.31645,0.60156,0.89801,0.94381,0.93307,0.9471,0.51368,1.44487,0.62873,0.90862,4.3375e-05,4.3375e-05,4.3375e-05
96,2347.02,1.28897,0.59739,0.88752,0.94964,0.93689,0.95327,0.51676,1.44145,0.62542,0.90762,3.71875e-05,3.71875e-05,3.71875e-05
97,2368.83,1.27282,0.59052,0.88621,0.94422,0.93493,0.95038,0.52333,1.42419,0.62136,0.90446,3.1e-05,3.1e-05,3.1e-05
98,2391.04,1.25539,0.58029,0.88341,0.94656,0.93511,0.95204,0.52728,1.40821,0.61472,0.90286,2.48125e-05,2.48125e-05,2.48125e-05
99,2413.27,1.25048,0.58009,0.88502,0.94657,0.93562,0.95102,0.5243,1.41575,0.61575,0.90353,1.8625e-05,1.8625e-05,1.8625e-05
100,2434.71,1.24657,0.5769,0.88447,0.94623,0.93662,0.95098,0.52804,1.39759,0.61312,0.90104,1.24375e-05,1.24375e-05,1.24375e-05
