epoch,time,train/box_loss,train/cls_loss,train/dfl_loss,metrics/precision(B),metrics/recall(B),metrics/mAP50(B),metrics/mAP50-95(B),val/box_loss,val/cls_loss,val/dfl_loss,lr/pg0,lr/pg1,lr/pg2
1,27.5449,2.01358,4.08011,1.61063,0.04562,0.9083,0.33274,0.16864,1.38287,3.58997,1.05124,0.000204327,0.000204327,0.000204327
2,50.9698,1.35518,2.84156,1.09456,0.77377,0.54939,0.85853,0.51725,1.24179,2.29693,0.98082,0.000408575,0.000408575,0.000408575
3,74.2297,1.37366,1.6441,1.12061,0.88445,0.89909,0.95858,0.58756,1.27362,1.07207,1.09603,0.000608698,0.000608698,0.000608698
4,96.4543,1.25922,1.16211,1.07912,0.95032,0.96911,0.97769,0.61741,1.14806,0.88752,0.97274,0.000606437,0.000606437,0.000606437
5,119,1.19784,1.02976,1.05462,0.96692,0.97141,0.98741,0.63246,1.12347,0.8371,0.98059,0.00060025,0.00060025,0.00060025
6,140.656,1.18094,0.93841,1.02981,0.97486,0.97127,0.98821,0.65608,1.05099,0.81646,0.97513,0.000594062,0.000594062,0.000594062
7,164.401,1.14455,0.91709,1.02339,0.95298,0.97483,0.97703,0.66945,1.04,0.7688,0.96295,0.000587875,0.000587875,0.000587875
8,188.407,1.13335,0.88426,1.01929,0.96843,0.98302,0.98586,0.667,1.05425,0.74975,0.98435,0.000581687,0.000581687,0.000581687
9,209.084,1.10172,0.86737,1.01,0.98624,0.98835,0.98675,0.65948,1.0473,0.73945,0.9555,0.0005755,0.0005755,0.0005755
10,229.026,1.10698,0.84858,1.00986,0.98578,0.98695,0.98809,0.65767,1.05959,0.72875,0.97683,0.000569313,0.000569313,0.000569313
11,249.246,1.10007,0.84903,1.00977,0.93145,0.98247,0.97939,0.67263,1.01892,0.71889,0.9631,0.000563125,0.000563125,0.000563125
12,270.767,1.09545,0.82411,1.00378,0.97679,0.98712,0.9887,0.67235,1.03947,0.69729,0.96242,0.000556938,0.000556938,0.000556938
13,293.575,1.08215,0.81813,1.0024,0.9623,0.97624,0.98195,0.66492,1.03013,0.74937,0.97961,0.00055075,0.00055075,0.00055075
14,314.398,1.08176,0.8161,0.99953,0.97779,0.98139,0.98765,0.6813,1.01807,0.68113,0.96291,0.000544563,0.000544563,0.000544563
15,334.767,1.06665,0.80196,0.99865,0.97711,0.98109,0.9861,0.66025,1.07609,0.71289,0.98682,0.000538375,0.000538375,0.000538375
16,355.119,1.075,0.79234,0.99813,0.98584,0.98878,0.98993,0.68494,1.01403,0.66414,0.96155,0.000532187,0.000532187,0.000532187
17,375.224,1.06335,0.768,0.98907,0.98162,0.98233,0.98784,0.68025,1.02806,0.66075,0.95472,0.000526,0.000526,0.000526
18,397.81,1.04858,0.76096,0.98983,0.96733,0.98933,0.98801,0.66172,1.05399,0.67181,0.97056,0.000519812,0.000519812,0.000519812
19,423.741,1.0551,0.75256,0.99212,0.9831,0.98531,0.98896,0.68143,1.01085,0.66678,0.96893,0.000513625,0.000513625,0.000513625
20,449.52,1.03235,0.73554,0.98576,0.97973,0.98903,0.98589,0.67994,1.03502,0.63622,0.96808,0.000507438,0.000507438,0.000507438
21,475.979,1.04303,0.74675,0.98876,0.97923,0.99121,0.98841,0.67996,1.01107,0.65251,0.96098,0.00050125,0.00050125,0.00050125
22,503.764,1.03455,0.72963,0.98961,0.98091,0.98416,0.98899,0.66619,1.08664,0.64441,0.99717,0.000495063,0.000495063,0.000495063
23,527.443,1.03904,0.72032,0.99237,0.98378,0.98686,0.98957,0.67954,1.01886,0.63874,0.97585,0.000488875,0.000488875,0.000488875
24,553.383,1.00558,0.69673,0.9834,0.98185,0.99164,0.99174,0.68965,1.01421,0.60985,0.98085,0.000482687,0.000482687,0.000482687
25,575.575,1.01821,0.69844,0.98749,0.98611,0.98663,0.99063,0.66659,1.0516,0.64976,0.98783,0.0004765,0.0004765,0.0004765
26,599.397,1.0018,0.69192,0.98381,0.98605,0.98543,0.9909,0.68213,1.01266,0.6219,0.97504,0.000470312,0.000470312,0.000470312
27,623.099,1.00829,0.68976,0.98064,0.97523,0.99093,0.98655,0.6829,1.01187,0.61495,0.97687,0.000464125,0.000464125,0.000464125
28,647.293,1.01298,0.69328,0.98496,0.97905,0.98918,0.99108,0.69633,1.01403,0.60496,0.97158,0.000457938,0.000457938,0.000457938
29,671.144,0.98794,0.67351,0.97456,0.98048,0.98293,0.9895,0.68659,1.02059,0.61898,0.98562,0.00045175,0.00045175,0.00045175
30,693.212,0.98343,0.66694,0.97608,0.98365,0.98511,0.98951,0.67357,1.08649,0.59909,1.00326,0.000445562,0.000445562,0.000445562
31,714.231,0.99481,0.6663,0.9793,0.9851,0.98985,0.98884,0.69393,0.99873,0.57775,0.96616,0.000439375,0.000439375,0.000439375
32,734.477,1.00124,0.65881,0.98587,0.98037,0.98307,0.98945,0.69104,1.02387,0.58607,0.97723,0.000433187,0.000433187,0.000433187
33,755.491,0.98557,0.64288,0.9792,0.98468,0.98813,0.98947,0.69482,1.02271,0.58762,0.97879,0.000427,0.000427,0.000427
34,776.849,0.98632,0.63787,0.97917,0.99008,0.99322,0.99065,0.69595,1.0209,0.55731,0.97144,0.000420812,0.000420812,0.000420812
35,798.211,0.96734,0.62211,0.96948,0.98689,0.98987,0.99197,0.69234,1.03252,0.55102,0.98242,0.000414625,0.000414625,0.000414625
36,819.759,0.96506,0.61566,0.96696,0.99054,0.99192,0.99281,0.69942,1.0099,0.53555,0.97968,0.000408438,0.000408438,0.000408438
37,842.88,0.95592,0.60254,0.96661,0.98826,0.99038,0.99159,0.68876,1.02645,0.53467,0.98635,0.00040225,0.00040225,0.00040225
38,866.465,0.95758,0.5962,0.96918,0.98354,0.98887,0.99197,0.69756,1.01567,0.54765,0.98397,0.000396063,0.000396063,0.000396063
39,889.948,0.95317,0.60178,0.968,0.98725,0.99359,0.99319,0.69632,1.02363,0.51035,0.98834,0.000389875,0.000389875,0.000389875
40,913.263,0.95599,0.59776,0.96979,0.97625,0.97665,0.98454,0.68107,1.05222,0.57233,0.99041,0.000383688,0.000383688,0.000383688
41,937.967,0.92953,0.57688,0.96014,0.98303,0.98787,0.98711,0.69223,1.01944,0.50836,0.98151,0.0003775,0.0003775,0.0003775
42,963.662,0.93286,0.57393,0.96545,0.97734,0.98863,0.99278,0.70264,1.01552,0.52201,0.97603,0.000371313,0.000371313,0.000371313
43,987.992,0.93001,0.57335,0.95852,0.98331,0.98899,0.99284,0.71138,0.99406,0.50253,0.98145,0.000365125,0.000365125,0.000365125
44,1011.48,0.93071,0.56737,0.96049,0.98137,0.98509,0.98921,0.71183,1.01891,0.50296,0.98188,0.000358938,0.000358938,0.000358938
45,1034.4,0.92523,0.5578,0.95706,0.98338,0.99123,0.99197,0.70996,1.01591,0.49706,0.97911,0.00035275,0.00035275,0.00035275
46,1058.06,0.92806,0.56345,0.95946,0.97511,0.98845,0.98921,0.70727,1.0036,0.49159,0.97703,0.000346563,0.000346563,0.000346563
47,1082.11,0.92026,0.55069,0.95683,0.98274,0.99197,0.99158,0.70325,1.03297,0.47493,0.99392,0.000340375,0.000340375,0.000340375
48,1107.91,0.90247,0.53897,0.9537,0.98703,0.98507,0.99167,0.70425,1.01159,0.48306,0.99141,0.000334188,0.000334188,0.000334188
49,1131.3,0.89248,0.53069,0.95307,0.98458,0.98438,0.9898,0.7092,1.00774,0.46859,0.99256,0.000328,0.000328,0.000328
50,1155.03,0.89592,0.52831,0.94889,0.98315,0.98126,0.99066,0.7096,0.98851,0.46382,0.98939,0.000321812,0.000321812,0.000321812
51,1178.84,0.88752,0.53077,0.94781,0.9804,0.98461,0.9904,0.70331,1.025,0.46731,0.99724,0.000315625,0.000315625,0.000315625
52,1203.36,0.88564,0.51721,0.95058,0.98833,0.98818,0.9913,0.70765,1.01237,0.45928,0.98431,0.000309437,0.000309437,0.000309437
53,1228.3,0.88719,0.52123,0.94556,0.98242,0.98732,0.99096,0.71311,0.99442,0.44891,0.98107,0.00030325,0.00030325,0.00030325
54,1251.52,0.85961,0.49165,0.94009,0.98849,0.98232,0.98837,0.70448,1.02528,0.46008,0.98574,0.000297063,0.000297063,0.000297063
55,1275.37,0.86072,0.50027,0.94114,0.97159,0.97623,0.98778,0.70941,1.00814,0.46808,0.99438,0.000290875,0.000290875,0.000290875
56,1299.22,0.85809,0.49246,0.93973,0.98571,0.99169,0.99377,0.71106,1.01697,0.44466,0.98838,0.000284688,0.000284688,0.000284688
57,1322.28,0.8525,0.49947,0.9391,0.98481,0.98394,0.99262,0.71721,1.00809,0.45735,0.98067,0.0002785,0.0002785,0.0002785
58,1344.09,0.84995,0.48687,0.93231,0.98357,0.98377,0.99167,0.72417,0.99832,0.44545,0.98385,0.000272313,0.000272313,0.000272313
59,1363.95,0.84534,0.48138,0.93693,0.97823,0.98954,0.99051,0.71961,0.99744,0.43824,0.98228,0.000266125,0.000266125,0.000266125
60,1384.39,0.83771,0.48229,0.93555,0.98807,0.98318,0.99217,0.72579,0.99245,0.43639,0.98471,0.000259938,0.000259938,0.000259938
61,1405.51,0.8116,0.46524,0.92992,0.98297,0.98396,0.99272,0.71309,1.00533,0.42685,0.99672,0.00025375,0.00025375,0.00025375
62,1426.19,0.821,0.46848,0.93014,0.98463,0.98012,0.98734,0.7106,1.0063,0.43956,0.99962,0.000247563,0.000247563,0.000247563
63,1446.64,0.80543,0.45866,0.92964,0.98301,0.98848,0.99186,0.72677,0.97431,0.42465,0.98197,0.000241375,0.000241375,0.000241375
64,1466.82,0.80517,0.46169,0.92942,0.98594,0.9838,0.98862,0.72216,0.99937,0.42216,0.99782,0.000235188,0.000235188,0.000235188
65,1487.78,0.79262,0.4492,0.92398,0.98612,0.99045,0.99061,0.72092,0.98182,0.41533,0.98544,0.000229,0.000229,0.000229
66,1508.08,0.7928,0.44693,0.92509,0.98369,0.9883,0.99156,0.72477,0.98425,0.41196,0.9888,0.000222813,0.000222813,0.000222813
67,1528.72,0.78054,0.44512,0.92181,0.98393,0.98435,0.99154,0.72709,0.98365,0.40577,0.99084,0.000216625,0.000216625,0.000216625
68,1550.6,0.78253,0.44443,0.91875,0.98345,0.98831,0.99272,0.71721,1.01242,0.41504,1.00691,0.000210437,0.000210437,0.000210437
69,1571.72,0.77264,0.43669,0.9202,0.98707,0.98204,0.98928,0.73519,0.96828,0.39808,0.9871,0.00020425,0.00020425,0.00020425
70,1593.15,0.77031,0.43487,0.91952,0.98431,0.98397,0.99097,0.73143,0.9814,0.3974,0.99017,0.000198063,0.000198063,0.000198063
71,1617.21,0.77139,0.44005,0.92195,0.98649,0.98359,0.99107,0.73565,0.96766,0.39329,0.98441,0.000191875,0.000191875,0.000191875
72,1645,0.75565,0.43405,0.91492,0.98317,0.98905,0.99004,0.739,0.95589,0.39071,0.98504,0.000185688,0.000185688,0.000185688
73,1669.82,0.75351,0.42733,0.91586,0.9875,0.98978,0.99112,0.74075,0.94797,0.39067,0.985,0.0001795,0.0001795,0.0001795
74,1694.73,0.73944,0.41984,0.91065,0.98433,0.98666,0.99154,0.73132,0.95555,0.38974,0.98725,0.000173313,0.000173313,0.000173313
75,1719.23,0.73256,0.41419,0.9079,0.98762,0.99044,0.99242,0.73331,0.96514,0.38742,0.98904,0.000167125,0.000167125,0.000167125
76,1743.75,0.72323,0.41367,0.90613,0.98708,0.98736,0.99302,0.73925,0.9506,0.382,0.99126,0.000160938,0.000160938,0.000160938
77,1770.84,0.73939,0.41934,0.90893,0.98606,0.98888,0.99201,0.73897,0.95856,0.38482,0.98537,0.00015475,0.00015475,0.00015475
78,1796.7,0.73097,0.41335,0.90885,0.98852,0.98546,0.99244,0.74514,0.94141,0.38813,0.99107,0.000148563,0.000148563,0.000148563
79,1820.94,0.70666,0.40788,0.90433,0.98839,0.98765,0.99129,0.73941,0.93944,0.37854,0.98213,0.000142375,0.000142375,0.000142375
80,1846.9,0.70813,0.40004,0.89764,0.99003,0.98905,0.99194,0.74167,0.92996,0.3773,0.98158,0.000136187,0.000136187,0.000136187
81,1874.31,0.70903,0.40248,0.90502,0.98406,0.98767,0.99015,0.74217,0.93781,0.38402,0.98634,0.00013,0.00013,0.00013
82,1902.92,0.69035,0.3964,0.9011,0.98419,0.9876,0.99204,0.74022,0.94867,0.3868,0.99597,0.000123812,0.000123812,0.000123812
83,1930.36,0.70527,0.3995,0.90307,0.99139,0.98944,0.99092,0.74828,0.92407,0.37318,0.98348,0.000117625,0.000117625,0.000117625
84,1953.96,0.68829,0.39434,0.89541,0.9883,0.98716,0.98991,0.73698,0.93629,0.38261,0.98239,0.000111438,0.000111438,0.000111438
85,1973.44,0.69836,0.39559,0.90186,0.98734,0.98715,0.9898,0.73582,0.93647,0.37218,0.98961,0.00010525,0.00010525,0.00010525
86,1993.32,0.68427,0.38823,0.89427,0.98799,0.98733,0.99002,0.7422,0.92656,0.3826,0.98361,9.90625e-05,9.90625e-05,9.90625e-05
87,2013.64,0.66318,0.38091,0.89476,0.98627,0.98782,0.99029,0.74407,0.91412,0.37981,0.98288,9.2875e-05,9.2875e-05,9.2875e-05
88,2033.88,0.66527,0.38013,0.89441,0.98715,0.9881,0.98905,0.74615,0.91905,0.37849,0.98434,8.66875e-05,8.66875e-05,8.66875e-05
89,2055.25,0.65886,0.38094,0.89114,0.98653,0.98683,0.98899,0.74177,0.93052,0.3863,0.99093,8.05e-05,8.05e-05,8.05e-05
90,2075.7,0.66198,0.38023,0.89529,0.98851,0.98837,0.98953,0.74336,0.91441,0.36926,0.98936,7.43125e-05,7.43125e-05,7.43125e-05
91,2130.95,0.55243,0.30711,0.85902,0.98853,0.98871,0.98933,0.73876,0.9175,0.36941,0.99237,6.8125e-05,6.8125e-05,6.8125e-05
92,2153.09,0.53826,0.30054,0.86087,0.98577,0.98602,0.98786,0.73497,0.92341,0.37372,0.99627,6.19375e-05,6.19375e-05,6.19375e-05
93,2175.49,0.52912,0.29765,0.85371,0.98883,0.98789,0.98852,0.7371,0.91352,0.37504,0.99854,5.575e-05,5.575e-05,5.575e-05
94,2197.47,0.51498,0.29143,0.84965,0.98842,0.98714,0.98964,0.73679,0.9132,0.3755,0.99895,4.95625e-05,4.95625e-05,4.95625e-05
95,2220.52,0.51062,0.29264,0.84394,0.98819,0.98927,0.98883,0.73913,0.90995,0.36585,1.00583,4.3375e-05,4.3375e-05,4.3375e-05
96,2243.27,0.50133,0.28778,0.84507,0.9889,0.98882,0.98953,0.74006,0.90516,0.36256,1.00584,3.71875e-05,3.71875e-05,3.71875e-05
97,2265.6,0.49129,0.28303,0.84462,0.98841,0.9884,0.98908,0.7407,0.90846,0.36545,1.00477,3.1e-05,3.1e-05,3.1e-05
98,2288.39,0.47973,0.27844,0.84174,0.98798,0.98917,0.98857,0.74324,0.90263,0.36466,1.00118,2.48125e-05,2.48125e-05,2.48125e-05
99,2312.58,0.47539,0.27626,0.8398,0.98881,0.98746,0.9884,0.74302,0.90131,0.3645,1.00189,1.8625e-05,1.8625e-05,1.8625e-05
100,2334.57,0.47798,0.27736,0.84041,0.98917,0.98863,0.98882,0.7434,0.89708,0.36137,1.00099,1.24375e-05,1.24375e-05,1.24375e-05
